Gap	Fundamental hv	Max flux hv
15.0	40.37
16.0	45.65
17.0	51.47
18.0	57.89
19.0	64.95
20.0	72.67
21.0	81.12
22.0	90.34
23.0	100.35
24.0	111.19
25.0	122.88
26.0	135.44
27.0	148.90
28.0	163.23
29.0	178.44
30.0	194.48
31.0	211.39
32.0	229.00